Steps,Temperature,Energy Stdev
1,2866.421819736471,0.020006482843223438
2,2847.3853503707032,0.02007230469554292
3,2823.1843260429887,0.02014003288335159
4,2795.3839412791854,0.020208616447811092
5,2765.6670879768008,0.020274117383230518
6,2735.6579550319257,0.020330784448015515
7,2706.826039355598,0.020373419311095407
8,2680.4272718317497,0.02039275762366046
9,2657.4899319003894,0.020383645000842485
10,2638.836409798291,0.020344027836951502
11,2625.1181813330645,0.02027220803716165
12,2616.867290781697,0.02016331259686762
13,2614.508548263986,0.02000996628844286
14,2618.298600340856,0.01980303406340728
15,2628.187613201608,0.01953490636163827
16,2643.6814070593696,0.01920604598667881
17,2663.763247317299,0.018831082342312566
18,2686.9029869771834,0.018437948499505218
19,2711.2038883646137,0.018062541034496168
20,2734.644346166277,0.017738530812986333
21,2755.3528124657137,0.017492579071849878
22,2771.849018792995,0.01734020191819423
23,2783.1730833325664,0.017288097251572196
24,2788.901275917132,0.01733963796492238
25,2789.1247833742195,0.01749567433459752
26,2784.339288174328,0.017756814021312767
27,2775.2750287447698,0.018118180440016163
28,2762.787100650653,0.018565618293354718
29,2747.7700394943195,0.01907530281253383
30,2731.111158901903,0.019617184994172653
31,2713.6187773900456,0.020158687967105297
32,2695.9482411346853,0.020673519771451297
33,2678.658532824864,0.02114311055545581
34,2662.3246510231165,0.021552125385420035
35,2647.569043329465,0.02188858826767135
36,2635.056029156726,0.022140152601779834
37,2625.4253870318507,0.02229562169860646
38,2619.1204979046083,0.02234908568642295
39,2616.2679656589507,0.022301423936399174
40,2616.617881630198,0.02216362237315415
41,2619.5434732968947,0.02195388366659452
42,2624.1023619749785,0.021691916601985335
43,2629.1483286815055,0.021397911495126206
44,2633.487063604594,0.021090650406130562
45,2636.0693858713403,0.02078582022875803
46,2636.1662892565696,0.02049641722351643
47,2633.4565167481505,0.02023327698571409
48,2628.0693462696663,0.020003535044245437
49,2620.5442212715857,0.019810986931381825
50,2611.6878194371347,0.019653767934637616
51,2602.3997596656086,0.019523153832804886
52,2593.526859748117,0.019405848529503868
53,2585.78673378706,0.01929246904155358
54,2579.7675802234917,0.01917900157875613
55,2575.989987193234,0.01906893605245729
56,2574.976009877369,0.01896797749923589
57,2577.2932209313526,0.01888128088225716
58,2583.488033041505,0.01881134768979171
59,2593.8997514578405,0.018754057282496246
60,2608.4635256747474,0.018698790948983586
61,2626.545086980289,0.018628408549973226
62,2646.874619128046,0.01852417031840341
63,2667.6649836913093,0.01837271113710238
64,2686.8671596344193,0.018172040039137933
65,2702.471807996238,0.017933689933971004
66,2712.812525332364,0.01768184529935369
67,2716.8797154794784,0.017448738216083254
68,2714.5710580152445,0.017261811469663955
69,2706.761836112702,0.017125708901067037
70,2695.1338618505656,0.017009047467567335
71,2681.744840253607,0.016859474841534893
72,2668.5027209344394,0.01663692062693361
73,2656.848540364257,0.016341285186568695
74,2647.7949128760006,0.016005741450284695
75,2642.1882703063634,0.015670585802659884
76,2640.8842443813055,0.015365506075110788
77,2644.689495538607,0.015106497683157137
78,2654.174396317255,0.014897377248431513
79,2669.463332137735,0.01473324384722579
80,2690.1640955449125,0.014601340032355548
81,2715.4255746798362,0.014487201663924405
82,2744.0453711096256,0.014379943275650278
83,2774.617188360699,0.014275056459178832
84,2805.6091953198274,0.014175843604257301
85,2835.4333206889446,0.014091190745434029
86,2862.5114972546994,0.014032992090153603
87,2885.3419156964287,0.01401241212745443
88,2902.6333824409553,0.014039038799847409
89,2913.441623760813,0.014116259403681497
90,2917.2722789957984,0.014239786277879191
91,2914.116709188989,0.014397074080182416
92,2904.40586103462,0.014571555278825796
93,2888.9001569860884,0.014751649728935617
94,2868.6002820657177,0.014934684067527893
95,2844.663120167316,0.015125312360828294
96,2818.4014935971327,0.015331681575280358
97,2791.310242024492,0.015559375320730916
98,2764.979880458235,0.015808515437131517
99,2740.9807347725136,0.016074506350843502
100,2720.7287550366045,0.01635186775562708
101,2705.3306817699827,0.0166360117343758
102,2695.490005205652,0.01692410270004829
103,2691.4820543878513,0.017214265008759527
104,2693.1773338138278,0.017505914157634545
105,2700.1111924233765,0.017795972944075523
106,2711.5306245717866,0.018075912760091326
107,2726.463876826754,0.018334969775538203
108,2743.794143257159,0.01855957557442878
109,2762.3210020315905,0.01873885612110314
110,2780.8585859503287,0.01886825685886885
111,2798.3750535923414,0.018951505099134666
112,2814.165930314452,0.019001477330844067
113,2827.991076652904,0.01903784468817143
114,2840.1511328957176,0.019078456669288667
115,2851.464981334273,0.01912681216256185
116,2863.056055054692,0.01916801333317875
117,2875.8965408357803,0.019181841975754423
118,2890.330665974032,0.019162087540772192
119,2905.813449795024,0.01912621749478049
120,2921.0106501789705,0.019104595195932886
121,2934.168179331787,0.019114369259037846
122,2943.502691005287,0.019149011441083677
123,2947.513559983671,0.019184689933375926
124,2945.198753116061,0.019197332009617634
125,2936.230105081187,0.019173442083883226
126,2921.084186960128,0.019114675782673306
127,2901.124550247705,0.019032740245821713
128,2878.603821518835,0.018944149124629068
129,2856.471482960593,0.01885986983531293
130,2837.916484034477,0.018776890633425986
131,2825.717904700536,0.01868753813727021
132,2821.6246692933623,0.018602053843080054
133,2826.0521286101775,0.018559372334652303
134,2838.2107780827887,0.018601121620108227
135,2856.5534868855425,0.01874184642365939
136,2879.2689397255285,0.018962023711457058
137,2904.607469561003,0.019220930369763276
138,2931.06419333042,0.01947820896357544
139,2957.49913987756,0.019702928125520016
140,2983.2053435350335,0.019875200759375627
141,3007.9326653560397,0.019983708783761177
142,3031.828372410457,0.020023955865856768
143,3055.2885771347483,0.019996360814697717
144,3078.7754413242037,0.019905839031782953
145,3102.614971962304,0.019761242811568887
146,3126.882720517694,0.0195754405893517
147,3151.3305011041675,0.019362403519651992
148,3175.3471760676616,0.019137724260764478
149,3198.003768268654,0.018914963394733354
150,3218.1651597529394,0.018702016777797863
151,3234.648803348979,0.01850617371508282
152,3246.375373558314,0.0183312105216299
153,3252.5060711781784,0.018179974340438863
154,3252.6119710007197,0.018056787300921133
155,3246.76863332252,0.017967377725187444
156,3235.5278639162293,0.017916536257305545
157,3219.9295436496504,0.01790502641198553
158,3201.4540499681084,0.01793554992080545
159,3181.8647158830854,0.01800506475999199
160,3163.0246384162624,0.01810638834997754
161,3146.654947284356,0.01823083272976364
162,3134.0954273735492,0.01836816459896725
163,3126.1281913741136,0.018508633964550894
164,3122.88563607951,0.018645978045581244
165,3123.8180249615248,0.018778743972859946
166,3127.7564582067334,0.018909524413406487
167,3133.1047595548102,0.019043344484125365
168,3138.100950531951,0.019185989236678767
169,3141.0477224014876,0.019338576805339912
170,3140.47714563949,0.019497359876814033
171,3135.3028732672815,0.019654863204432098
172,3124.9372589043796,0.019800142695313917
173,3109.3507655519634,0.019919997506853585
174,3089.0748355009086,0.020003150360221638
175,3065.194469571161,0.020040748224505755
176,3039.312746003908,0.02002858369692691
177,3013.376503810284,0.019967914891102053
178,2989.4066673072925,0.019863849509053667
179,2969.1977352135104,0.01972285423011663
180,2954.022169048346,0.019550804317008542
181,2944.417181962735,0.019350752561508686
182,2940.130323663819,0.019124257838074067
183,2940.278720227691,0.018870591753696292
184,2943.6395306034738,0.018588225279481407
185,2949.00688452223,0.018277497339079064
186,2955.503315842045,0.017944209367764336
187,2962.7210181878613,0.017601817830377106
188,2970.702228061023,0.017272164024342073
189,2979.7964609105506,0.01698256375906541
190,2990.4334700025865,0.01676111237637473
191,3002.8904915675816,0.016625759621759616
192,3017.079770697729,0.01658203482011622
193,3032.419910002235,0.016625410420685938
194,3047.9158985342738,0.016742695748204594
195,3062.3869209977684,0.016914639047004312
196,3074.7245470658677,0.017116912215788947
197,3084.1324963560296,0.017327112979969805
198,3090.3344792319617,0.01752749626552349
199,3093.667422927262,0.017704799803873822
200,3095.0391951686765,0.017852021027679122
201,3095.8102966480315,0.017962225067185776
202,3097.578185104423,0.018029479483348505
203,3101.901455002426,0.01805024586028848
204,3110.014229223187,0.018023752771618703
205,3122.5795108162,0.017950492195046738
206,3139.4999970808685,0.01783434538454126
207,3159.8354366098547,0.01768020980879792
208,3181.878796030057,0.01749168719817868
209,3203.3403453976944,0.017274698107218905
210,3221.6144058836267,0.017039253614074348
211,3234.1210229633416,0.01680004469753137
212,3238.6828474799277,0.016576463399104357
213,3233.83317175816,0.016387750327900234
214,3218.9799625276514,0.016251368072395706
215,3194.460506064557,0.01617480629591029
216,3161.5006915726294,0.016152299512946295
217,3122.0770803530754,0.016168108731467394
218,3078.6570543247853,0.016200664855124475
219,3033.9328844670295,0.016225563964115116
220,2990.6074468834413,0.016217787521783995
221,2951.32782969433,0.016159067619196818
222,2918.79035382766,0.016048207696857095
223,2895.8729067450463,0.01591658759431612
224,2885.675290924298,0.015823899834246608
225,2891.086202732603,0.015806787323459012
226,2913.7057084606467,0.01584786895212811
227,2952.597038695431,0.01592701311253715
228,3003.8656628556573,0.016058972805869584
229,3061.636834768929,0.01624705950139664
230,3119.65438662624,0.016449954515577507
231,3172.5188721129575,0.016613972143315166
232,3216.2926486564475,0.0167071205504412
233,3248.6624889295726,0.01672513223026372
234,3268.8653158791244,0.016679575669168476
235,3277.4334217007085,0.01658459065603147
236,3275.8616071366405,0.0164489614007327
237,3266.2626318028633,0.01626953897678896
238,3251.039467827557,0.016037038646844918
239,3232.6580629740415,0.015743707629271575
240,3213.5402612742314,0.015390848428708344
241,3195.9616502032413,0.014999547105841513
242,3181.882690901409,0.014616944927867628
243,3172.64609161917,0.014312404067820894
244,3168.476440201086,0.014161563556453637
245,3168.14538699148,0.014220635995120681
246,3169.2548751720306,0.0144982701506056
247,3169.142458250189,0.014950303515038895
248,3165.889486744236,0.015502113959510448
249,3158.902927810934,0.016084027301340217
250,3149.038319660588,0.01663948138461127
251,3138.488805331122,0.0171236277463306
252,3130.5932623764124,0.01750095389861012
253,3129.301491953993,0.017743645258611065
254,3137.791046308199,0.01781458358721166
255,3156.622051479211,0.017714914503947327
256,3183.0202433059367,0.017539700359956813
257,3212.1782001337397,0.017418650821916477
258,3239.4936101081507,0.017419937756461154
259,3262.0605530338885,0.017534690333312647
260,3278.896653357593,0.017720450796508212
261,3290.472804767264,0.017932501800646893
262,3298.0378611270535,0.018136274685704057
263,3302.9418826907186,0.018309721605749056
264,3306.178548810559,0.01844093555606411
265,3308.2652316598974,0.018523779523842408
266,3309.3013727388397,0.018553801891678195
267,3309.087386686873,0.01852892080759799
268,3307.3073304677255,0.018449689509221663
269,3303.678971418736,0.018319532145320366
270,3297.9913380490357,0.018149644797333036
271,3290.06074512363,0.017959977146976898
272,3279.6132840738524,0.017778113285768563
273,3266.20641778021,0.01763255460422854
274,3249.2410193489936,0.01754695421310626
275,3228.0192825259724,0.017537666600755758
276,3201.8373632313865,0.017612249864738246
277,3170.120301791164,0.017770064891731042
278,3132.5770961772578,0.018005854506990493
279,3089.3827425818217,0.018309375845770543
280,3041.3848877192922,0.01866524166017881
281,2990.2286545930688,0.01905457579320004
282,2938.3866573782007,0.019454442443111262
283,2889.026437775322,0.019842391356269643
284,2845.697907446408,0.020202519186055756
285,2811.9167751049035,0.02052880096920909
286,2790.6634154674452,0.020822074830018848
287,2783.879435847669,0.021083767137909812
288,2792.1186365067415,0.021310598996991652
289,2814.3923398211923,0.0214949225651845
290,2848.2621622373736,0.021630732504268224
291,2890.282668063669,0.021714764734057455
292,2936.696687852657,0.021744130310124586
293,2984.064644520564,0.02171245889775035
294,3029.60803999197,0.021615136554468877
295,3071.2161607884027,0.021453308072923043
296,3107.193952224233,0.02123953578636833
297,3135.9996093005807,0.02099763188434964
298,3156.1653699987596,0.020752053336272596
299,3166.3615829480013,0.020524412106201588
300,3165.6343600790897,0.020325654903620895
301,3153.7481841278527,0.0201547502500712
302,3131.4261994685467,0.020009410586383156
303,3100.4493781031892,0.01988894341755539
304,3063.5582863500367,0.01979947349445775
305,3024.1365275430076,0.019743787969590306
306,2985.663187000158,0.01971666673002713
307,2951.042816117126,0.019710916668163332
308,2922.029549226177,0.019730163169203285
309,2899.056250364272,0.019791900013937314
310,2881.5561242934527,0.019919121398436226
311,2868.4962458029745,0.02012428864391925
312,2858.8160273738854,0.020406530963368183
313,2851.645548939543,0.02075785600542574
314,2846.3551962547563,0.02116918397225593
315,2842.498597872636,0.02163351312040352
316,2839.7280678953657,0.02214106561936176
317,2837.7172540270285,0.022670148394195327
318,2836.0862300532385,0.023185318275930306
319,2834.3947313490225,0.02364617416169491
320,2832.177975778504,0.024015928526397664
321,2829.0160526614045,0.024268450873745965
322,2824.6250348318954,0.024398055869222897
323,2818.9576816491285,0.024418057506896105
324,2812.2532210327527,0.024353025944374967
325,2805.0023250968,0.024231551899157985
326,2797.8504393217304,0.02408048592021321
327,2791.4421973528074,0.02392175120789234
328,2786.3162992207085,0.02377039637101468
329,2782.8006935302597,0.023633716584160747
330,2780.885558289317,0.023508522037326653
331,2780.1802042995864,0.02338445881706238
332,2779.9519041436106,0.023248368931099692
333,2779.246709055473,0.023088796432046015
334,2777.113119409423,0.022901118277023052
335,2772.9207584218934,0.022689645935567784
336,2766.5686761032684,0.02247201775078489
337,2758.6485601644613,0.022275423164143188
338,2750.5589533557372,0.022122274672726486
339,2744.355779232748,0.02201146847239416
340,2742.349430915867,0.021910697788589235
341,2746.4667671564857,0.02176885227346404
342,2757.571138720916,0.021548543759493898
343,2775.0375906967015,0.02124965345968104
344,2796.8022604537523,0.020902847301580096
345,2819.8449778670774,0.020537450463047044
346,2840.8878863559585,0.02016460824547052
347,2857.1226052175593,0.019780028275603028
348,2866.802229664989,0.019383192923604332
349,2869.682056886646,0.01899494977666149
350,2867.252563319371,0.01865696016251876
351,2862.5161510576977,0.018407179229530727
352,2859.1149894208925,0.018249032694555238
353,2860.0228283620977,0.018155461229915643
354,2866.5784954848014,0.018097332910985243
355,2878.4995575920616,0.018053435720754074
356,2894.629212553957,0.018008653881979805
357,2913.647365814499,0.01795298026485913
358,2934.351608547039,0.017876756593666675
359,2955.6671157375717,0.017770987146861043
360,2976.610668396862,0.017626194931067308
361,2996.3240796540704,0.017437306105334994
362,3014.1310163146713,0.01720907745721912
363,3029.62189966122,0.01695597841410591
364,3042.734524302458,0.016698990797219888
365,3053.711246589238,0.01646273100581341
366,3063.0035360254587,0.01626698430984195
367,3071.1577662018008,0.0161209805040785
368,3078.624420529389,0.016023140473374407
369,3085.5595640553765,0.015971006135185088
370,3091.7065323092374,0.015968849565398777
371,3096.398528894155,0.016027217311202446
372,3098.679321182395,0.016156617799727928
373,3097.4583673883603,0.016360179764583167
374,3091.6954752008737,0.016630441059311434
375,3080.607019791761,0.016944430321007196
376,3063.839876596818,0.017267323715491598
377,3041.532348359175,0.01755809008277449
378,3014.2189064585677,0.017783321201918233
379,2982.6856482499547,0.01792924465803614
380,2947.808734335481,0.018005783020542784
381,2910.50786490375,0.018037056235018202
382,2871.783046787093,0.01803762191752013
383,2832.748471628063,0.018002420457418854
384,2794.622393871522,0.01791438439256417
385,2758.5679298676705,0.017761757861828344
386,2725.4926929959147,0.017553792338702613
387,2695.955221403027,0.01731991755128561
388,2670.2810167615635,0.017098460300624074
389,2648.774528466611,0.016922424421291424
390,2631.81277327495,0.016816280253400383
391,2619.7143488773836,0.01680016914440191
392,2612.4637367785376,0.01689208758981609
393,2609.514743969159,0.017102695013936846
394,2609.804278111143,0.017426978199731057
395,2611.939290790316,0.017837414817487185
396,2614.4895338570605,0.018283538333685418
397,2616.267963741131,0.018709048698292662
398,2616.475600792451,0.019066860226819103
399,2614.756260700897,0.01932659020203528
400,2611.176736214595,0.0194777380062472
401,2606.1123564173336,0.019527139139775305
402,2600.1503844061044,0.01949680027089057
403,2594.013960575485,0.019418034408966285
404,2588.471612374438,0.019324639655011088
405,2584.29146297496,0.019243767665649957
406,2582.2397347537303,0.019190920716718633
407,2583.0655558411545,0.019167118772112822
408,2587.467175864992,0.019163828478249892
409,2596.026756248493,0.019169187803059016
410,2609.089427262569,0.01917218492889182
411,2626.601864939723,0.019165541633121726
412,2647.9180954629032,0.019146931201011564
413,2671.776895871582,0.019119268388498024
414,2696.4000389393664,0.019089061169010716
415,2719.6447800799056,0.01906284870236665
416,2739.291170952114,0.01904375679087583
417,2753.3065098504176,0.019029590236093394
418,2760.070100280545,0.01901506820970247
419,2758.546242971288,0.018995811382367122
420,2748.4031674331095,0.0189730811249805
421,2730.0906814377513,0.018955855626297053
422,2704.823533166544,0.018959126855858207
423,2674.50023862889,0.018998717548235535
424,2641.4708212636137,0.019084135405580745
425,2608.1559382228365,0.019217942943297418
426,2576.689908909379,0.01939865074199806
427,2548.670997444408,0.019626357932778102
428,2525.037853473491,0.01989983312195825
429,2506.1120516513083,0.02021118587715242
430,2491.7431301213956,0.020541653926129475
431,2481.492084420912,0.020861109663905752
432,2474.7813677561535,0.021134086186599073
433,2470.9853606669144,0.021324428182928255
434,2469.5623695183426,0.021401166452579008
435,2470.209747109052,0.02134361941170442
436,2473.0014113993784,0.02114619066966662
437,2478.4387591470286,0.020823707693754065
438,2487.2849119033026,0.020413092399164254
439,2500.287009372093,0.019965331399600137
440,2517.865713909087,0.019535576071975785
441,2539.7478575754626,0.019162142992578964
442,2564.7365591811613,0.01885687811452947
443,2590.8441871618097,0.018609053328664978
444,2615.7379408310326,0.018399782723902584
445,2637.1715635030887,0.018212242516257034
446,2653.2869198572066,0.018037174027495346
447,2662.7840696795643,0.017872265980825742
448,2664.9305953172443,0.017719522309481272
449,2659.496246675921,0.017582978605421785
450,2646.714259876052,0.017465607384516465
451,2627.24136893564,0.017368402892935984
452,2602.0859633766618,0.01729130489801314
453,2572.524595590627,0.01723419709609275
454,2540.0236394315,0.017199012699559292
455,2506.1877447414204,0.01718839319366463
456,2472.647069015686,0.017205722848154345
457,2440.9018929893964,0.01725217153433334
458,2412.2316601909324,0.017324630019480185
459,2387.6234568022564,0.017418793974417708
460,2367.7694892018285,0.017531040808421366
461,2353.1241935807802,0.017660253672611138
462,2343.9734244070187,0.017804176680285017
463,2340.475525673842,0.01796028269695051
464,2342.6107952525854,0.018122948803806972
465,2350.072910139249,0.018281977841442663
