Steps,Temperature,Energy Stdev
1,2706.737302969439,0.016444632573345403
2,2710.5138946665584,0.016405649831210498
3,2710.0296155727074,0.016384940693500445
4,2705.790426862773,0.016407345467039387
5,2698.8233149996026,0.016489572058347703
6,2690.5336611617518,0.01663654410042585
7,2682.482917047503,0.016836023017678853
8,2676.100663853791,0.017061031239701832
9,2672.3474820364986,0.0172847593032272
10,2671.424829603317,0.017497619118188548
11,2672.7957831273898,0.017709001037983292
12,2675.4959341265753,0.017942243606703236
13,2678.5068345781024,0.018214458328909944
14,2681.1056752371533,0.018532460362796065
15,2683.0458413391298,0.018878949322858583
16,2684.438283586929,0.019223323141609926
17,2685.481568981792,0.0195409857511616
18,2686.297577109678,0.01982717819031709
19,2687.013069276958,0.020085422241616968
20,2687.9707315162864,0.020311229694940928
21,2689.848181359299,0.020485903175259116
22,2693.6046370076538,0.020589009748617604
23,2700.271967704702,0.02060863238941653
24,2710.6822013012134,0.020548188867033645
25,2725.295200364085,0.020426338519749312
26,2744.2177493234917,0.020269753083372356
27,2767.2891617036526,0.020104256055088116
28,2794.1009783132654,0.019941714538025217
29,2823.9740049555203,0.019783963176102547
30,2855.9308442695274,0.01962988867601429
31,2888.7441787558764,0.019479729812720104
32,2921.098564604393,0.01934160759626779
33,2951.7241891447743,0.019228213612757665
34,2979.4894168226665,0.01914723934845413
35,3003.4475115922705,0.019101615040811155
36,3022.794646193196,0.019091947792334408
37,3036.826087990648,0.01911856547671929
38,3044.917581827614,0.019183245828327377
39,3046.5646939132616,0.019290004040643977
40,3041.4661131004364,0.019442258266576095
41,3029.626148808692,0.019635286109867856
42,3011.443427559805,0.019858343624784815
43,2987.772823076071,0.020097914448755236
44,2959.9205586537673,0.02033921797770115
45,2929.5318240734864,0.02056458203040205
46,2898.4469013117005,0.02075831501075942
47,2868.529970432454,0.02090578314405788
48,2841.483530273893,0.020991678071425365
49,2818.717982560199,0.021006198637962287
50,2801.2352266110565,0.02095137830472414
51,2789.6368454989406,0.02084281108871754
52,2784.1769260383594,0.02069898810092581
53,2784.6778698442745,0.020539673969935467
54,2790.4439332606566,0.02037891072001364
55,2800.319599619491,0.02022188808995085
56,2812.871852783719,0.02006908635124891
57,2826.617475418125,0.019913974232542146
58,2840.2583267660975,0.019751596538696802
59,2852.859082031247,0.019580754094392284
60,2863.9037820920203,0.019403780156886007
61,2873.2404028905253,0.01922439049823375
62,2880.981589117659,0.01904853915047519
63,2887.378090894518,0.018887179495529996
64,2892.6971541679804,0.018749244167945867
65,2897.14923593534,0.01863238683592447
66,2900.8504118427454,0.018521086476090926
67,2903.8783630867692,0.01838913014809084
68,2906.389060620548,0.018206453107010356
69,2908.783132622596,0.01794786693013363
70,2911.8721453984895,0.017603607726496082
71,2916.7677066610463,0.0171877266750788
72,2924.570632768687,0.01673081835142127
73,2936.040103191659,0.01626938490633157
74,2951.4427064225783,0.015834438284475272
75,2970.6593086983826,0.015448489908675783
76,2993.379603521597,0.015120932064871717
77,3019.19799674407,0.014854255970778985
78,3047.5753825609604,0.014642091785629162
79,3077.7059727663664,0.014470079405496748
80,3108.420747567812,0.014323169424446336
81,3138.1912789428316,0.014188686279242402
82,3165.2447649434685,0.014064355432115356
83,3187.7789547852976,0.013953618362611966
84,3204.1757738533074,0.01386349837973154
85,3213.1827268153256,0.01380439953780988
86,3214.0537755784912,0.013786241957176397
87,3206.6525293539416,0.01381565639627307
88,3191.497898049034,0.013895053663100619
89,3169.6892391131278,0.014020976976353216
90,3142.786112020793,0.014189236817053766
91,3112.620445916602,0.014392110198501857
92,3080.9698902781593,0.014621225675322976
93,3049.280191414425,0.014868327334172619
94,3018.4984316785685,0.015125153569410486
95,2988.973655468664,0.015382548934676969
96,2960.446484562682,0.01563246890939269
97,2932.1531092945274,0.015868369417257677
98,2903.0126782262123,0.016087058500782927
99,2871.844155855351,0.01629361694118007
100,2837.590843510945,0.016497062235464238
101,2799.5913656118078,0.016706313692884618
102,2757.780073174385,0.016930190248079725
103,2712.7666357870908,0.017173655837686503
104,2665.810362112353,0.01743789995186015
105,2618.6774756917384,0.01771489415214637
106,2573.407947055115,0.017986689199256396
107,2532.0291348291166,0.01822954402174724
108,2496.308270413672,0.01842261044052992
109,2467.6276832460853,0.01854971739201734
110,2446.995704490628,0.018602682892976025
111,2435.1155995221798,0.018581588620155555
112,2432.4349201121713,0.018490205222911952
113,2439.1342349291513,0.018329124084353613
114,2455.072891217454,0.018095449579165774
115,2479.699446485714,0.01778518982063649
116,2511.984993509475,0.017394543575613885
117,2550.452935300452,0.016927840264193354
118,2593.283375716517,0.016397240132519784
119,2638.4893782968834,0.015828482830602876
120,2684.1065373465085,0.01525363338079504
121,2728.336570093962,0.014705138879746072
122,2769.631917366593,0.014212507278871533
123,2806.739010578729,0.013797650283723513
124,2838.715498735862,0.013471330990546026
125,2864.8841119088083,0.01323661511338777
126,2884.7716399494548,0.013091499284124614
127,2898.046028777654,0.013030485051323258
128,2904.446344826645,0.013046687558182892
129,2903.7850145475736,0.01313280933423404
130,2895.989799519808,0.013276390930498518
131,2881.1400611341437,0.013467210835836223
132,2859.5277679328965,0.013698735889920662
133,2831.718528395705,0.013969773487721594
134,2798.6078458284887,0.014275250658358328
135,2761.4463991375305,0.014606005598783367
136,2721.784954086401,0.014949791425928343
137,2681.406993873214,0.015297392104335502
138,2642.196546422409,0.015642543178687303
139,2605.9559612648836,0.01598161439227474
140,2574.2386560441882,0.01630761553568532
141,2548.1929689298718,0.016615843021544424
142,2528.465781532741,0.01689856810856626
143,2515.1286321745392,0.017144131550153655
144,2507.678086191292,0.017344204891154555
145,2505.105503370204,0.017495188763022078
146,2505.994099143212,0.017601466100079777
147,2508.7218924319004,0.01767503503007409
148,2511.7639980701124,0.017727966379808936
149,2513.990242001417,0.017769020542812146
150,2514.9056832900383,0.017800905931458014
151,2514.7599942649076,0.01782277178166302
152,2514.4714279216296,0.017829958229163893
153,2515.412882662517,0.017817491682924468
154,2519.1188250363944,0.01777919820181906
155,2526.988005285824,0.01770846669709309
156,2540.0193694832888,0.01759984905412764
157,2558.6395391983174,0.017453828938262337
158,2582.6417722326587,0.01727331975903943
159,2611.1885893002564,0.017059989295006926
160,2642.8456281246836,0.016815016520340537
161,2675.7238919840156,0.016539768091681603
162,2707.662307430651,0.01623786676676666
163,2736.400426381828,0.015916267447548347
164,2759.7845860149473,0.015589065012037924
165,2775.952873936389,0.015270428676499392
166,2783.478533616721,0.014972983576102867
167,2781.474514478714,0.014708502378942376
168,2769.7017569557315,0.014489274725639533
169,2748.6117788387683,0.014325358470738422
170,2719.3254223681643,0.014223657171858433
171,2683.5740729456757,0.014189874062574418
172,2643.5806207879477,0.014230076756963372
173,2601.8688768978423,0.014341549451419387
174,2561.066846126731,0.014514319265520213
175,2523.742818742635,0.014729662322267585
176,2492.2173058882126,0.014959311320077764
177,2468.3561334635383,0.015173774577198516
178,2453.447095883235,0.015350218961508365
179,2448.1626404758267,0.015474383381809783
180,2452.5658544543303,0.015538672079264257
181,2466.201049029185,0.015539992296816605
182,2488.256107447984,0.01547833286873207
183,2517.657173521756,0.015354192104793291
184,2553.0962333542984,0.015173557084796355
185,2593.096882245129,0.014948305554266331
186,2636.072022511264,0.01469012874823465
187,2680.3703181415635,0.014408118110585053
188,2724.339240931171,0.01410462276304354
189,2766.3888550551655,0.01378819288898316
190,2805.010067859815,0.013467119813072356
191,2838.8200916701558,0.013143351620224866
192,2866.5774878834677,0.01281748677106435
193,2887.1604785798795,0.01249124461699606
194,2899.543369499306,0.012169287607707063
195,2902.7552320775862,0.01186108733397117
196,2895.932933501644,0.01157683412673932
197,2878.4106171371727,0.011325238764566937
198,2849.8406560221274,0.011113034756270661
199,2810.346098681695,0.010945461808876938
200,2760.6546397681504,0.010829826441120498
201,2702.236332784083,0.010774171366910315
202,2637.3999717658958,0.010790133993595465
203,2569.2530749105526,0.01088454926768511
204,2501.4622232851348,0.011057383815961292
205,2437.8469748604625,0.011305923286480215
206,2381.8862027442988,0.011631771954491457
207,2336.291939178505,0.012043811875758847
208,2302.808551430196,0.012542628335090988
209,2282.234980427754,0.013115682016457013
210,2274.4821877737704,0.013735067267669272
211,2278.624426550207,0.014364885185717694
212,2292.9736118972787,0.014974516008781103
213,2315.1988199959,0.015545662873147474
214,2342.48294398049,0.016072682351937664
215,2371.755970735025,0.0165568482105374
216,2399.9962833360255,0.017009098365779983
217,2424.5464232618788,0.01744530587133961
218,2443.400544250157,0.01787970831873845
219,2455.3621590247544,0.018320363288636295
220,2460.087956057713,0.01876838450661929
221,2458.03635754413,0.019219442383004576
222,2450.2948308037294,0.019662537501490787
223,2438.3223248614095,0.02007910673918536
224,2423.6896359051916,0.020447784676189684
225,2407.8457820080685,0.020754615938520148
226,2391.962346792541,0.020995135998642618
227,2376.9169664079304,0.021173831754024895
228,2363.405980951498,0.02130811762385052
229,2352.1065894003264,0.021416287385228404
230,2343.818765520123,0.021512189482915937
231,2339.4731832466628,0.02160018289189487
232,2340.0487917893715,0.021679563383255374
233,2346.4509111331936,0.02174248050967698
234,2359.3660164573216,0.021777179120256635
235,2379.1206093163178,0.02177183189907866
236,2405.5773491636237,0.021714192036411464
237,2438.1363391116256,0.021602032470155862
238,2475.7918399559267,0.021439653382032194
239,2517.21987814211,0.02123255673581637
240,2560.889076055952,0.020986833551666036
241,2605.1943485677075,0.0207055972292495
242,2648.519282691307,0.020391238344200428
243,2689.297502247032,0.020046120031846734
244,2726.1260931889096,0.019681512306806172
245,2757.851972377966,0.019322300308690026
246,2783.658970809228,0.01898877506665842
247,2803.0967994408074,0.018688246295723847
248,2816.0686528521933,0.01841761588073962
249,2822.756683168485,0.018166160877937508
250,2823.492984457713,0.0179333510855254
251,2818.684043478943,0.01773431206814638
252,2808.8260622993007,0.017589232503856713
253,2794.5700263782155,0.01750545018686129
254,2776.759738543286,0.017474692151258076
255,2756.34296460586,0.017479954391385277
256,2734.2346210376118,0.017505861831196123
257,2711.2612020972147,0.017542668281083824
258,2688.131898518734,0.017592302453154487
259,2665.4280619215747,0.01765997337738898
260,2643.6352545877567,0.017748274702556934
261,2623.131822705153,0.017851925935640577
262,2604.088256297871,0.01796026892783536
263,2586.344291016762,0.018057782156066876
264,2569.348061529769,0.01813264785883096
265,2552.232494690149,0.018181522294603306
266,2534.009895202634,0.018207800854862035
267,2513.811443055242,0.018217340082614046
268,2491.121634968894,0.018210666920810657
269,2465.939579469667,0.018186190647551774
270,2438.809968743915,0.018141800428805418
271,2410.7509550709065,0.018076419116926305
272,2383.06231450824,0.01798956134596902
273,2357.0930383943983,0.01788621541358461
274,2334.0481040315995,0.0177784372512826
275,2314.8242535664003,0.017683327720050775
276,2299.9379893848723,0.017620963562444993
277,2289.5183437454084,0.017605861816761145
278,2283.3480545689818,0.01764333837632108
279,2281.0317567868788,0.017735093602638637
280,2282.1288388189314,0.017876121890295135
281,2286.231044876193,0.018053257713789617
282,2293.081829605741,0.018252493012771143
283,2302.6285711453834,0.018460954610708794
284,2315.0134811291487,0.018669126441697968
285,2330.543468098805,0.018865134419248187
286,2349.587397801439,0.019039571788542774
287,2372.421297069914,0.0191916871463462
288,2399.1239555604006,0.019325111268381674
289,2429.4716331918066,0.01944520758965666
290,2462.8700851106287,0.019556871972167017
291,2498.357720029983,0.019664180991228155
292,2534.637437353442,0.019768899134615416
293,2570.1440239599333,0.019867733737348493
294,2603.1508114118383,0.01995701020497367
295,2631.895236696878,0.020033817714261146
296,2654.6700650133716,0.02009432086906432
297,2669.9357357505946,0.020136947022126157
298,2676.4676802029594,0.020162251101416038
299,2673.5000695175895,0.020176094222532196
300,2660.8765304705703,0.020191370062194545
301,2639.150687471994,0.02022566081490144
302,2609.6468079862243,0.020296177616617474
303,2574.456524578057,0.020410922127968665
304,2536.317051616543,0.020561985839188602
305,2498.302519708883,0.020731068791842038
306,2463.333018494225,0.020894959960261365
307,2433.714581502384,0.021049338547797593
308,2410.8483313746833,0.021220763866227392
309,2395.1465892219685,0.021450819210963208
310,2386.162478449699,0.021769729740658578
311,2382.824766790968,0.02217975820707785
312,2383.667429103368,0.02265833183866317
313,2387.065797282552,0.023169711269316426
314,2391.4087400334824,0.02367358384033626
315,2395.2564273977423,0.024136270801793095
316,2397.518806130148,0.024537284096382332
317,2397.5669469910413,0.024867267631715786
318,2395.2951118150377,0.025128629300968798
319,2391.122235673574,0.025334364194834237
320,2385.944655623656,0.02549523649640226
321,2381.085014708973,0.02561851998531715
322,2378.1473497778898,0.025698961769443907
323,2378.7769148774223,0.025716522494560367
324,2384.3368016213644,0.025647582283803445
325,2395.581689398801,0.025485859165355954
326,2412.5365644737717,0.025249031676910595
327,2434.5883588090837,0.024969636460424608
328,2460.711724034166,0.024679141277424915
329,2489.731741076324,0.024391485643968005
330,2520.500499846051,0.02410070609279407
331,2551.9852170862605,0.02379065036668612
332,2583.326028328002,0.023450762650916727
333,2613.8838203215773,0.023079289314259416
334,2643.245663127853,0.02268440090775776
335,2671.208686959096,0.022273806692224223
336,2697.7879766892092,0.021857199244562895
337,2723.173749536491,0.021442068939243532
338,2747.616887216084,0.021033991172574373
339,2771.2816815636693,0.020638945331000757
340,2794.114618184893,0.020262972135405382
341,2815.7812462331403,0.019915421687460622
342,2835.670389038485,0.01960615671961285
343,2852.957616608312,0.01934280961972529
344,2866.661525124171,0.019127728129116298
345,2875.7096965495857,0.018954014593748684
346,2879.0371154991603,0.01881260418808423
347,2875.6741809148493,0.018697593134307605
348,2864.836942943953,0.018608423681854926
349,2846.0247010552393,0.018547475216598528
350,2819.088359387548,0.018513642020291845
351,2784.235091197825,0.018507714439891135
352,2741.990351824841,0.01853101665327475
353,2693.2048723553135,0.01858421841701273
354,2639.101674508502,0.018665597059474612
355,2581.3586767736983,0.018766118495256112
356,2522.1608628963163,0.0188724358013314
357,2464.1364267670906,0.01897451148827799
358,2410.210845063484,0.01906845435605461
359,2363.3698125900523,0.019157495272265734
360,2326.3822644504257,0.019247939470164427
361,2301.561623337804,0.019343867120431825
362,2290.5817851337024,0.019451410533214215
363,2294.380430284931,0.019576421711484944
364,2313.1752588207664,0.019719799215028592
365,2346.458986615907,0.019871722329458504
366,2393.0010717833184,0.02001515312359487
367,2450.893760097041,0.020127334977321623
368,2517.5815157525612,0.020186866465981272
369,2589.9479708151534,0.020179476078847704
370,2664.503800490336,0.020108140539451612
371,2737.670214606201,0.019991139213181276
372,2806.086365205721,0.019857211049533488
373,2866.863137021039,0.019735152306315153
374,2917.7675502209972,0.01964749727874491
375,2957.300871544215,0.019609128870750687
376,2984.667541794235,0.019625757929115795
377,2999.735838720728,0.019695661343011275
378,3002.979479337516,0.019813420314159773
379,2995.351767060696,0.019968976012923974
380,2978.1672057122328,0.020157733993871017
381,2953.0263676788713,0.020378294665458988
382,2921.724559976197,0.020632495650503534
383,2886.153514100867,0.02091952816376286
384,2848.2169726278353,0.021234842193203096
385,2809.741404727279,0.021568179282282208
386,2772.32469581836,0.021899956913992796
387,2737.1596188995914,0.02220651023306571
388,2704.902998735622,0.022461466863818808
389,2675.648701800589,0.02263969226016399
390,2649.0524436472415,0.022719595433793822
391,2624.580637159083,0.022688332357684245
392,2601.862542011287,0.02254428411610256
393,2580.9349751488344,0.022297064495473837
394,2562.2817066834896,0.021971545807199292
395,2546.7229788812742,0.0215967141393389
396,2535.1596523087132,0.021198881228961138
397,2528.2943461197083,0.0207956651479718
398,2526.49596910758,0.02039378836072891
399,2529.7537238514324,0.019993498992151724
400,2537.6513288009705,0.019593041058620524
401,2549.396243762894,0.01919318594411262
402,2563.901929265037,0.0187986774442114
403,2579.9183976040144,0.018417340068284157
404,2596.1594072094776,0.01806208698585331
405,2611.4490857895994,0.01774120749635008
406,2624.8369664438715,0.01745745935703972
407,2635.6544244018573,0.017211758071118324
408,2643.535258748579,0.017004983424222145
409,2648.4005482962903,0.016838946026311988
410,2650.4541528530217,0.01671828835282793
411,2650.1952517561294,0.01664838435939216
412,2648.4400524630505,0.016638611561809114
413,2646.2738454870096,0.016700295638200243
414,2644.9846837150976,0.01682718939718198
415,2645.940716044733,0.016998715649561087
416,2650.3839758636104,0.017186711732775348
417,2659.2775902413505,0.017364368501465922
418,2673.186338781166,0.01751455448367857
419,2692.3166942290386,0.017628533127020167
420,2716.714119761567,0.017698908811779664
421,2746.366369978417,0.017709882992207857
422,2781.121351854572,0.017643944987175586
423,2820.4911511924706,0.017493143961349322
424,2863.495123125241,0.017267009504455696
425,2908.651747731595,0.01699129546946885
426,2954.1464201644703,0.016701048363392042
427,2998.01125000845,0.016434044882607846
428,3038.2877268860393,0.016223099782821
429,3073.247270015272,0.016088101758074673
430,3101.510758665547,0.01603353237265506
431,3122.0540319249194,0.0160489855287876
432,3134.16598149924,0.016105930568891084
433,3137.3637717206607,0.016178593689028572
434,3131.3670684452777,0.016257012950515005
435,3116.2232406872945,0.016348271581864315
436,3092.47598874036,0.016475394941851844
437,3061.2842500683782,0.016653010934766142
438,3024.4410480084002,0.016883415422699517
439,2984.252097205324,0.017155201707377853
440,2943.2353848913967,0.017445149281422823
441,2903.7473379576422,0.01772183788890635
442,2867.6494919867782,0.017954814370130218
443,2836.0643351066196,0.0181280906793344
444,2809.326052051593,0.018241106317852234
445,2787.112856241292,0.018304197900682193
446,2768.693915787687,0.01832797242005727
447,2753.1391045732116,0.018319089197570856
448,2739.4345689272104,0.018276771261706
449,2726.5659880987396,0.018200358981013118
450,2713.585236382764,0.018092949509199954
451,2699.670549682565,0.017961947234716964
452,2684.2154708192165,0.017818504613375818
453,2666.957800976437,0.01767407699385513
454,2648.0956701781993,0.017543672023569604
455,2628.330544434067,0.017446793682634906
456,2608.871537528955,0.017393809772830147
457,2591.372190604791,0.017384192631898384
458,2577.7648658259645,0.017404378595151693
459,2570.042935559224,0.01743171450194473
460,2569.9584921171936,0.017446349610047807
461,2578.7136264209735,0.017443183406933675
462,2596.7413627335623,0.01743241154894719
463,2623.6113790214454,0.017435472273522584
464,2658.090718638387,0.01746833871675599
465,2698.3114137750795,0.01752574994170041
