1672
1711
1233
1074
1293
1218
1649
448
1775
839
1335
1813
864
906
1453
1863
1799
1340
1980
207
1208
294
514
144
1683
473
1055
645
807
1477
1991
2019
606
483
546
389
1012
401
867
738
1194
168
578
376
278
1798
201
337
231
1405
1005
1971
920
761
1448
664
127
251
497
1210
259
1482
1793
225
1941
1267
1917
1396
1237
1669
690
1379
1651
1650
1698
1765
467
1114
1494
178
2013
1115
2041
1736
1200
621
1328
1975
1836
71
1550
1356
457
1726
134
611
1376
487
517
542
786
925
829
947
1228
252
635
72
1890
188
1404
1791
900
2052
1311
295
1822
1245
1560
1689
2042
1244
290
1414
315
336
90
1656
544
1044
1361
921
1972
380
549
1908
250
1222
1761
352
451
404
98
1664
240
1957
341
1528
1854
730
1930
101
667
1313
1212
1780
54
312
1240
255
1049
1413
462
1107
88
683
429
1009
1870
2032
103
2011
1533
1515
375
2045
1647
1527
137
1426
1082
799
1862
333
1629
1113
1178
567
1833
1283
300
1239
1616
837
1928
2005
1790
410
17
465
1708
741
2048
678
728
1071
877
1992
1330
1080
15
739
128
153
742
1314
1425
882
175
866
1825
630
2038
1588
733
1442
1281
654
1416
155
11
729
126
1157
1086
1079
753
1271
937
1325
1492
1480
1503
366
520
344
737
766
888
267
358
1877
1715
1713
1784
1241
185
141
317
605
486
613
19
515
1932
1013
1084
1918
87
1383
1128
1486
703
83
1993
793
871
1358
668
754
1348
1810
1735
1246
1625
1018
109
1943
1359
432
327
802
1622
347
365
2040
659
1355
42
2006
943
555
2023
1842
836
800
314
2015
33
1153
1801
506
1510
1392
1422
1868
875
1559
1893
1431
338
1712
932
1804
1135
1583
1323
1661
1458
1282
1377
170
1620
384
204
1659
722
99
7
1706
265
1658
771
494
263
1919
1089
469
752
1578
1048
488
102
1786
1463
1280
1633
917
279
248
777
1321
883
1495
1505
1982
1978
370
1129
769
4
1447
301
413
1003
1587
1866
1874
576
308
1056
669
844
1637
368
1960
1511
1828
1123
1809
458
681
1428
266
2031
1871
516
60
686
1430
1039
992
977
1905
1216
2028
307
247
274
1186
1081
1662
696
1068
1465
1456
227
1010
1444
1872
1462
1575
195
1000
1298
1351
1769
648
632
2004
95
1914
2039
82
120
430
1403
1976
472
812
1455
1097
1286
146
818
1026
979
1315
397
1514
1718
1929
1553
414
618
1741
1266
459
994
691
795
1838
1630
2018
140
125
1231
321
1947
41
1292
1716
1865
1558
210
1418
735
180
1304
545
1250
650
1935
286
496
922
69
1119
693
492
1036
1473
1243
548
443
169
1301
138
447
1889
132
1600
675
419
1699
1332
165
1476
1168
121
293
935
298
1654
1349
891
960
1815
1942
208
1999
411
1322
1749
151
438
805
1263
150
1021
1951
581
808
968
311
1925
798
1819
135
1789
1254
223
1380
390
810
143
1963
1343
1512
607
1757
614
1592
1299
1549
174
1899
521
988
616
1490
1382
1227
938
1072
740
760
455
306
1501
1748
811
1536
783
1272
283
1867
765
1795
464
1760
1631
275
1024
589
261
1554
1598
1607
1518
262
116
879
270
1644
1574
47
1373
1977
684
130
1337
1915
2002
450
903
782
124
1033
57
256
1253
55
1824
936
1190
1521
855
1475
31
323
80
1814
292
931
2029
485
1509
1051
586
1338
1948
12
1001
963
878
192
1102
913
1728
1907
928
1548
1939
193
890
846
13
527
989
791
142
387
172
604
1635
1770
697
1639
695
850
1138
886
634
181
2007
560
1034
564
377
393
1193
40
1566
1175
995
1417
620
159
1782
1954
894
23
136
1714
1952
1469
720
670
1388
470
1372
828
24
1623
1067
442
154
1781
1679
640
1006
1884
215
1172
489
1663
1984
1617
1169
1291
1988
554
1468
510
865
1881
1944
405
484
1224
202
1252
1682
1294
1362
1065
651
1209
396
1177
495
110
257
2000
1543
81
1408
106
1740
1690
115
788
1439
756
196
941
566
1284
901
1126
1424
1131
1247
222
1091
1374
1693
559
1163
1565
3
964
2027
789
176
1411
599
1702
1502
848
1831
1880
1289
1956
1738
1513
519
1655
1671
1856
1885
843
872
466
440
1014
727
1807
709
230
1924
272
971
1100
1685
1756
908
1188
1470
1519
1974
775
1445
816
1104
933
1869
273
950
948
1817
647
1461
209
1308
1896
1571
953
907
420
444
1759
982
869
1342
1419
665
721
1393
409
183
558
1496
1446
1556
1591
842
371
673
1938
1297
1368
1385
1162
1524
987
1696
325
199
1278
1196
1668
926
1504
242
1290
1968
609
2017
1324
1612
1035
16
734
1912
1093
1506
1122
61
572
880
643
112
1220
1165
1970
1037
1634
476
719
1307
52
755
970
1608
1108
597
318
197
726
949
1078
322
235
1211
20
588
1262
2051
1063
1229
372
820
1830
1300
480
1844
1260
331
1238
628
246
1182
897
1734
1754
857
1159
502
133
1277
736
732
1117
1437
1998
1994
10
1666
973
911
305
1910
1707
966
861
1375
249
276
1774
534
601
1401
1136
320
1839
1197
213
784
687
93
1201
1626
63
939
1440
1274
89
1215
858
590
957
910
1542
803
899
1429
446
1346
1389
658
1053
1170
91
983
1124
1147
1767
1191
990
565
1742
904
770
1562
53
1438
2044
1149
475
822
1436
663
232
386
1922
512
704
1195
471
35
5
1530
1111
1484
876
30
1570
1967
219
1552
592
785
1646
972
847
1050
759
2037
1101
550
160
1357
1585
1987
540
139
218
1334
94
2043
895
575
889
1184
1563
1901
1816
1931
381
1652
445
426
1752
1174
1681
1529
92
749
1206
610
425
852
1171
1995
1848
190
602
299
1316
1891
661
773
1110
1823
22
491
378
1073
1596
490
526
107
541
304
1643
427
415
2034
1653
1603
833
918
1732
1150
1544
18
1381
407
1199
627
1185
666
1027
468
2020
1827
1285
96
2
1485
1204
587
269
1701
1303
1894
1648
1273
1011
553
1394
612
260
434
416
1008
1537
1670
367
569
767
1969
1561
1800
1916
1788
1888
189
1457
1677
1739
1743
694
680
1986
258
674
626
744
1060
525
961
1567
1751
1746
1847
1725
402
1214
1249
1845
1481
324
1936
874
418
1539
1094
1133
708
46
924
1990
1140
1582
412
1730
148
1498
179
915
1772
187
1821
768
474
456
1360
1400
214
453
1302
1166
1198
1611
1572
1811
158
330
652
823
431
524
583
929
1087
1733
717
152
543
1295
885
1402
927
662
104
100
198
619
436
1906
1202
716
1046
1704
406
902
747
1179
388
856
68
1808
637
277
1483
1025
353
1621
1497
162
1920
801
522
119
291
1181
723
1667
1940
43
1966
1618
454
1979
672
1541
1568
1892
1320
48
1794
1365
1213
478
1148
579
1242
1058
117
1861
699
449
1327
1116
1132
1953
360
424
220
1471
417
21
354
956
422
1964
1580
1610
297
1421
591
615
1099
1606
76
36
1564
1366
329
439
1353
1958
1589
965
1927
1641
123
1973
233
374
1694
688
1602
743
1151
212
1427
2026
1433
1829
1882
118
1727
1684
840
1555
1460
1318
1785
562
860
369
537
1820
1019
751
1432
1364
452
1750
191
1452
594
1902
1004
2049
1331
1336
981
1840
1144
849
530
1109
712
711
1864
39
363
1878
1378
1508
28
479
1032
2030
951
339
944
794
571
1257
1384
596
1605
1449
1731
1846
1120
1450
563
122
287
1491
1038
1161
1873
1155
362
364
203
282
1367
831
85
1692
264
1326
636
653
1773
373
310
881
617
1520
582
1996
1221
1522
1812
622
1586
1467
379
84
1609
942
1531
996
6
280
1921
1347
1103
1203
1657
1386
535
819
862
1207
184
1985
2009
825
78
772
976
421
1306
868
1678
725
639
1557
2025
49
254
700
228
161
1105
1850
1507
1142
1057
851
682
1183
892
1156
281
1265
59
780
574
460
1041
74
529
1255
1624
914
806
182
1187
77
745
1691
1164
2014
423
1420
1395
2035
1232
1141
993
1137
355
1687
1390
79
114
787
268
1933
813
1851
1717
1345
633
1339
350
608
1059
1753
834
671
532
1911
998
1719
1762
2022
216
1755
863
1333
302
1064
853
70
1406
1545
163
157
1478
598
826
642
166
934
1493
873
600
518
655
357
1371
1007
1112
45
764
595
1709
1837
1275
1407
1546
194
1248
1614
2016
1098
145
73
1189
557
25
1085
1576
2010
975
1043
1269
2033
1879
1409
1744
1700
67
1841
1818
245
149
702
75
319
561
1989
1312
1534
1022
65
750
2047
603
1023
345
253
923
500
1500
1777
1876
815
838
1627
660
332
962
1270
237
1391
1487
1729
1886
177
1464
1095
1062
239
1047
66
1858
715
1090
499
1676
1125
403
1688
959
288
539
1020
303
504
1217
511
1015
731
705
649
1859
1632
356
271
131
351
536
1279
1934
164
676
629
1950
556
1547
832
234
701
156
1826
1680
1173
2001
1787
1205
1540
1160
1599
1387
1601
1594
1776
1945
1584
26
62
1488
328
1673
1802
1259
1923
905
1288
1517
1031
58
395
1590
827
824
1853
1423
1959
1256
1962
1139
56
641
1638
1075
1860
625
748
493
1230
1236
1152
893
1354
349
243
382
946
1723
552
779
171
1579
8
211
1779
1771
335
568
593
1352
909
762
1722
206
1724
1251
967
804
340
533
1875
958
482
27
757
528
1792
346
930
1855
985
1106
408
952
817
1258
428
776
51
585
477
1130
1016
1459
870
1235
1883
441
1474
1535
1674
1778
718
1581
809
1479
217
383
509
186
841
1
1747
385
1843
1310
1597
1926
1832
1143
919
692
1083
945
884
623
1604
1721
2046
1526
1981
1028
1370
1538
1225
646
361
1305
334
523
1319
1369
1499
1030
1118
205
1054
570
1127
1146
296
1268
1070
1226
714
689
400
531
898
1763
391
940
859
1412
679
1595
796
1965
790
1296
1341
1849
1887
1900
814
1219
1766
1997
656
955
1686
1261
2021
1435
129
986
285
1768
2053
463
638
